epoch,lr,train_accuracy,train_macro_f1,train_cohen_kappa,train_weighted_kappa,train_precision_c0,train_recall_c0,train_f1_c0,train_support_c0,train_precision_c1,train_recall_c1,train_f1_c1,train_support_c1,train_precision_c2,train_recall_c2,train_f1_c2,train_support_c2,train_precision_c3,train_recall_c3,train_f1_c3,train_support_c3,train_precision_c4,train_recall_c4,train_f1_c4,train_support_c4,train_loss,val_accuracy,val_macro_f1,val_cohen_kappa,val_weighted_kappa,val_precision_c0,val_recall_c0,val_f1_c0,val_support_c0,val_precision_c1,val_recall_c1,val_f1_c1,val_support_c1,val_precision_c2,val_recall_c2,val_f1_c2,val_support_c2,val_precision_c3,val_recall_c3,val_f1_c3,val_support_c3,val_precision_c4,val_recall_c4,val_f1_c4,val_support_c4,val_loss,is_best
1,2.125e-05,0.1791044776119403,0.09639934533551556,-0.07748538011695905,-0.04479727814006251,0.21212121212121213,0.3684210526315789,0.2692307692307692,19,0.14705882352941177,0.38461538461538464,0.2127659574468085,13,0.0,0.0,0.0,9,0.0,0.0,0.0,15,0.0,0.0,0.0,11,0.7472555781478313,0.21212121212121213,0.06999999999999999,0.0,0.0,0.21212121212121213,1.0,0.35,7,0.0,0.0,0.0,9,0.0,0.0,0.0,5,0.0,0.0,0.0,6,0.0,0.0,0.0,6,0.7257483713554613,True
2,3.25e-05,0.19402985074626866,0.065,0.0,0.0,0.0,0.0,0.0,19,0.19402985074626866,1.0,0.325,13,0.0,0.0,0.0,9,0.0,0.0,0.0,15,0.0,0.0,0.0,11,0.7018345532132618,0.21212121212121213,0.06999999999999999,0.0,0.0,0.21212121212121213,1.0,0.35,7,0.0,0.0,0.0,9,0.0,0.0,0.0,5,0.0,0.0,0.0,6,0.0,0.0,0.0,6,0.7008542489523839,False
3,4.375e-05,0.19402985074626866,0.065,0.0,0.0,0.0,0.0,0.0,19,0.19402985074626866,1.0,0.325,13,0.0,0.0,0.0,9,0.0,0.0,0.0,15,0.0,0.0,0.0,11,0.6753101238563879,0.21212121212121213,0.06999999999999999,0.0,0.0,0.21212121212121213,1.0,0.35,7,0.0,0.0,0.0,9,0.0,0.0,0.0,5,0.0,0.0,0.0,6,0.0,0.0,0.0,6,0.7031441426036333,False
4,5.4999999999999995e-05,0.14925373134328357,0.08156288156288156,-0.03608247422680422,-0.06384386371154482,0.0,0.0,0.0,19,0.16,0.6153846153846154,0.25396825396825395,13,0.11764705882352941,0.2222222222222222,0.15384615384615385,9,0.0,0.0,0.0,15,0.0,0.0,0.0,11,0.6606710932148037,0.21212121212121213,0.06999999999999999,0.0,0.0,0.21212121212121213,1.0,0.35,7,0.0,0.0,0.0,9,0.0,0.0,0.0,5,0.0,0.0,0.0,6,0.0,0.0,0.0,6,0.7183426736581205,False
5,6.625e-05,0.14925373134328357,0.08951486697965572,0.012157268494567885,0.013872441211300934,0.0,0.0,0.0,19,0.4,0.15384615384615385,0.2222222222222222,13,0.12903225806451613,0.8888888888888888,0.22535211267605634,9,0.0,0.0,0.0,15,0.0,0.0,0.0,11,0.6580721157700268,0.21212121212121213,0.06999999999999999,0.0,0.0,0.21212121212121213,1.0,0.35,7,0.0,0.0,0.0,9,0.0,0.0,0.0,5,0.0,0.0,0.0,6,0.0,0.0,0.0,6,0.7120141110034904,False
6,7.75e-05,0.14925373134328357,0.07531531531531532,0.015214027849406841,0.023720772619450936,0.0,0.0,0.0,19,0.5,0.07692307692307693,0.13333333333333333,13,0.13846153846153847,1.0,0.24324324324324326,9,0.0,0.0,0.0,15,0.0,0.0,0.0,11,0.6467986508981506,0.18181818181818182,0.06153846153846154,0.0,0.0,0.0,0.0,0.0,7,0.0,0.0,0.0,9,0.0,0.0,0.0,5,0.0,0.0,0.0,6,0.18181818181818182,1.0,0.3076923076923077,6,0.7522879265775584,False
7,8.875e-05,0.2835820895522388,0.16879432624113475,0.14239999999999997,0.3297765921973991,0.0,0.0,0.0,19,0.35294117647058826,0.9230769230769231,0.5106382978723404,13,0.21212121212121213,0.7777777777777778,0.3333333333333333,9,0.0,0.0,0.0,15,0.0,0.0,0.0,11,0.5994626360153085,0.18181818181818182,0.06153846153846154,0.0,0.0,0.0,0.0,0.0,7,0.0,0.0,0.0,9,0.0,0.0,0.0,5,0.0,0.0,0.0,6,0.18181818181818182,1.0,0.3076923076923077,6,0.8574008402198252,False
8,0.0001,0.5671641791044776,0.5015037593984962,0.4476975554292212,0.7057101024890191,0.7058823529411765,0.631578947368421,0.6666666666666666,19,0.4666666666666667,0.5384615384615384,0.5,13,0.6666666666666666,0.8888888888888888,0.7619047619047619,9,0.4782608695652174,0.7333333333333333,0.5789473684210527,15,0.0,0.0,0.0,11,0.498697226794798,0.2727272727272727,0.15241935483870966,0.08860759493670889,0.19813084112149537,0.0,0.0,0.0,7,0.42857142857142855,0.3333333333333333,0.375,9,0.0,0.0,0.0,5,0.24,1.0,0.3870967741935484,6,0.0,0.0,0.0,6,0.7187658295486913,True
9,9.998052800596113e-05,0.6865671641791045,0.5851987171680266,0.5902737332556784,0.7947075208913649,0.7037037037037037,1.0,0.8260869565217391,19,0.8,0.3076923076923077,0.4444444444444444,13,1.0,0.8888888888888888,0.9411764705882353,9,0.5555555555555556,1.0,0.7142857142857143,15,0.0,0.0,0.0,11,0.42908715543462267,0.18181818181818182,0.06153846153846154,0.0,0.0,0.0,0.0,0.0,7,0.0,0.0,0.0,9,0.0,0.0,0.0,5,0.0,0.0,0.0,6,0.18181818181818182,1.0,0.3076923076923077,6,1.156447783022216,False
10,9.992212734338192e-05,0.6716417910447762,0.5545238095238096,0.5697606538237011,0.787007601935038,0.6551724137931034,1.0,0.7916666666666666,19,1.0,0.15384615384615385,0.26666666666666666,13,1.0,1.0,1.0,9,0.5555555555555556,1.0,0.7142857142857143,15,0.0,0.0,0.0,11,0.37114326758171196,0.18181818181818182,0.06153846153846154,0.0,0.0,0.0,0.0,0.0,7,0.0,0.0,0.0,9,0.0,0.0,0.0,5,0.0,0.0,0.0,6,0.18181818181818182,1.0,0.3076923076923077,6,1.2687980702429107,False
11,9.982484395882215e-05,0.7611940298507462,0.7238642898217367,0.6894553881807648,0.846723186650518,0.6785714285714286,1.0,0.8085106382978723,19,1.0,0.23076923076923078,0.375,13,1.0,1.0,1.0,9,0.6818181818181818,1.0,0.8108108108108109,15,1.0,0.45454545454545453,0.625,11,0.32147618505492137,0.21212121212121213,0.10315789473684212,0.03378378378378377,0.030250648228176358,0.0,0.0,0.0,7,1.0,0.1111111111111111,0.2,9,0.0,0.0,0.0,5,0.0,0.0,0.0,6,0.1875,1.0,0.3157894736842105,6,1.1623240488948243,False
12,9.96887543897155e-05,0.8208955223880597,0.8178987699132889,0.7700228832951945,0.8944327731092437,0.6538461538461539,0.8947368421052632,0.7555555555555555,19,0.6666666666666666,0.3076923076923077,0.42105263157894735,13,0.9,1.0,0.9473684210526315,9,1.0,0.9333333333333333,0.9655172413793104,15,1.0,1.0,1.0,11,0.2746899877021562,0.18181818181818182,0.06153846153846154,0.0,0.0,0.0,0.0,0.0,7,0.0,0.0,0.0,9,0.0,0.0,0.0,5,0.0,0.0,0.0,6,0.18181818181818182,1.0,0.3076923076923077,6,1.2348722581911569,False
13,9.951396570415405e-05,0.835820895522388,0.827987760505712,0.7888252148997135,0.9035971223021583,0.6666666666666666,0.9473684210526315,0.782608695652174,19,0.8,0.3076923076923077,0.4444444444444444,13,0.9,1.0,0.9473684210526315,9,1.0,0.9333333333333333,0.9655172413793104,15,1.0,1.0,1.0,11,0.24646296011867808,0.18181818181818182,0.06153846153846154,0.0,0.0,0.0,0.0,0.0,7,0.0,0.0,0.0,9,0.0,0.0,0.0,5,0.0,0.0,0.0,6,0.18181818181818182,1.0,0.3076923076923077,6,1.488352417975965,False
14,9.930061541665266e-05,0.835820895522388,0.8159104658197217,0.7880966072455434,0.904322991042451,0.6551724137931034,1.0,0.7916666666666666,19,1.0,0.23076923076923078,0.375,13,0.9,1.0,0.9473684210526315,9,1.0,0.9333333333333333,0.9655172413793104,15,1.0,1.0,1.0,11,0.21239668695784328,0.18181818181818182,0.06153846153846154,0.0,0.0,0.0,0.0,0.0,7,0.0,0.0,0.0,9,0.0,0.0,0.0,5,0.0,0.0,0.0,6,0.18181818181818182,1.0,0.3076923076923077,6,1.739325708090657,False
15,9.904887137995989e-05,0.8805970149253731,0.8763285024154589,0.8461538461538461,0.9300261096605744,0.7037037037037037,1.0,0.8260869565217391,19,1.0,0.38461538461538464,0.5555555555555556,13,1.0,1.0,1.0,9,1.0,1.0,1.0,15,1.0,1.0,1.0,11,0.1862463973351379,0.18181818181818182,0.06153846153846154,0.0,0.0,0.0,0.0,0.0,7,0.0,0.0,0.0,9,0.0,0.0,0.0,5,0.18181818181818182,1.0,0.3076923076923077,6,0.0,0.0,0.0,6,2.265222581558757,False
16,9.875893165300025e-05,0.8656716417910447,0.855819774718398,0.8266244968372628,0.9215762777994537,0.6785714285714286,1.0,0.8085106382978723,19,1.0,0.3076923076923077,0.47058823529411764,13,1.0,1.0,1.0,9,1.0,1.0,1.0,15,1.0,1.0,1.0,11,0.1680005161619898,0.18181818181818182,0.06153846153846154,0.0,0.0,0.0,0.0,0.0,7,0.0,0.0,0.0,9,0.0,0.0,0.0,5,0.0,0.0,0.0,6,0.18181818181818182,1.0,0.3076923076923077,6,1.7803009951204964,False
17,9.843102434505193e-05,0.8805970149253731,0.8763285024154589,0.8461538461538461,0.9300261096605744,0.7037037037037037,1.0,0.8260869565217391,19,1.0,0.38461538461538464,0.5555555555555556,13,1.0,1.0,1.0,9,1.0,1.0,1.0,15,1.0,1.0,1.0,11,0.15453407128355395,0.18181818181818182,0.06153846153846154,0.0,0.0,0.0,0.0,0.0,7,0.0,0.0,0.0,9,0.0,0.0,0.0,5,0.0,0.0,0.0,6,0.18181818181818182,1.0,0.3076923076923077,6,1.6506209781675627,False
18,9.806540743628242e-05,0.8656716417910447,0.855819774718398,0.8266244968372628,0.9215762777994537,0.6785714285714286,1.0,0.8085106382978723,19,1.0,0.3076923076923077,0.47058823529411764,13,1.0,1.0,1.0,9,1.0,1.0,1.0,15,1.0,1.0,1.0,11,0.1410083912424187,0.18181818181818182,0.06153846153846154,0.0,0.0,0.0,0.0,0.0,7,0.0,0.0,0.0,9,0.0,0.0,0.0,5,0.0,0.0,0.0,6,0.18181818181818182,1.0,0.3076923076923077,6,2.471373542307904,False
19,9.766236857478335e-05,0.8805970149253731,0.8836363636363636,0.8466819221967964,0.929492238884504,0.72,0.9473684210526315,0.8181818181818182,19,0.8571428571428571,0.46153846153846156,0.6,13,1.0,1.0,1.0,9,1.0,1.0,1.0,15,1.0,1.0,1.0,11,0.13234113221293065,0.18181818181818182,0.06153846153846154,0.0,0.0,0.0,0.0,0.0,7,0.0,0.0,0.0,9,0.0,0.0,0.0,5,0.0,0.0,0.0,6,0.18181818181818182,1.0,0.3076923076923077,6,1.7437614301840465,False
20,9.722222485026419e-05,0.8656716417910447,0.855819774718398,0.8266244968372628,0.9215762777994537,0.6785714285714286,1.0,0.8085106382978723,19,1.0,0.3076923076923077,0.47058823529411764,13,1.0,1.0,1.0,9,1.0,1.0,1.0,15,1.0,1.0,1.0,11,0.11860985122065046,0.18181818181818182,0.06153846153846154,0.0,0.0,0.0,0.0,0.0,7,0.0,0.0,0.0,9,0.0,0.0,0.0,5,0.18181818181818182,1.0,0.3076923076923077,6,0.0,0.0,0.0,6,2.6336992755080715,False
21,9.674532254458269e-05,0.8656716417910447,0.8652631578947367,0.8272206303724928,0.920980212291967,0.6923076923076923,0.9473684210526315,0.8,19,0.8333333333333334,0.38461538461538464,0.5263157894736842,13,1.0,1.0,1.0,9,1.0,1.0,1.0,15,1.0,1.0,1.0,11,0.11101975503252513,0.18181818181818182,0.06153846153846154,0.0,0.0,0.0,0.0,0.0,7,0.0,0.0,0.0,9,0.0,0.0,0.0,5,0.0,0.0,0.0,6,0.18181818181818182,1.0,0.3076923076923077,6,2.3834501379856254,False
22,9.623203685930869e-05,0.9104477611940298,0.9127272727272727,0.8850114416475973,0.9471191791633781,0.76,1.0,0.8636363636363636,19,1.0,0.5384615384615384,0.7,13,1.0,1.0,1.0,9,1.0,1.0,1.0,15,1.0,1.0,1.0,11,0.1046407843036438,0.18181818181818182,0.075,0.0,0.03825136612021862,0.0,0.0,0.0,7,0.0,0.0,0.0,9,0.0,0.0,0.0,5,0.0,0.0,0.0,6,0.23076923076923078,1.0,0.375,6,3.1359258415723086,False
23,9.568277162053529e-05,0.9104477611940298,0.9127272727272727,0.8850114416475973,0.9471191791633781,0.76,1.0,0.8636363636363636,19,1.0,0.5384615384615384,0.7,13,1.0,1.0,1.0,9,1.0,1.0,1.0,15,1.0,1.0,1.0,11,0.09629415349284215,0.18181818181818182,0.06153846153846154,0.0,0.0,0.0,0.0,0.0,7,0.0,0.0,0.0,9,0.0,0.0,0.0,5,0.0,0.0,0.0,6,0.18181818181818182,1.0,0.3076923076923077,6,2.05666753715939,False
24,9.509795896116975e-05,0.8955223880597015,0.8952046783625731,0.8656160458452722,0.9385401651159743,0.7307692307692307,1.0,0.8444444444444444,19,1.0,0.46153846153846156,0.631578947368421,13,1.0,1.0,1.0,9,1.0,1.0,1.0,15,1.0,1.0,1.0,11,0.08899986152328662,0.18181818181818182,0.06153846153846154,0.0,0.0,0.0,0.0,0.0,7,0.0,0.0,0.0,9,0.0,0.0,0.0,5,0.0,0.0,0.0,6,0.18181818181818182,1.0,0.3076923076923077,6,2.670524010030233,False
25,9.447805898095418e-05,0.9402985074626866,0.9445887445887446,0.9236031927023945,0.9644750795334041,0.8260869565217391,1.0,0.9047619047619048,19,1.0,0.6923076923076923,0.8181818181818182,13,1.0,1.0,1.0,9,1.0,1.0,1.0,15,1.0,1.0,1.0,11,0.08545655140013837,0.24242424242424243,0.15555555555555553,0.07407407407407396,0.05604203152364273,0.0,0.0,0.0,7,0.0,0.0,0.0,9,0.0,0.0,0.0,5,0.2,1.0,0.3333333333333333,6,0.6666666666666666,0.3333333333333333,0.4444444444444444,6,3.485773539407687,False
26,9.382355938448331e-05,0.9402985074626866,0.9466666666666667,0.9238636363636363,0.9641998397007747,0.8571428571428571,0.9473684210526315,0.9,19,0.9090909090909091,0.7692307692307693,0.8333333333333334,13,1.0,1.0,1.0,9,1.0,1.0,1.0,15,1.0,1.0,1.0,11,0.07657639969195892,0.18181818181818182,0.06153846153846154,0.0,0.0,0.0,0.0,0.0,7,0.0,0.0,0.0,9,0.0,0.0,0.0,5,0.0,0.0,0.0,6,0.18181818181818182,1.0,0.3076923076923077,6,2.422621227874223,False
27,9.313497509750425e-05,0.9552238805970149,0.9592788971367975,0.9428002276607854,0.973253493013972,0.8636363636363636,1.0,0.926829268292683,19,1.0,0.7692307692307693,0.8695652173913043,13,1.0,1.0,1.0,9,1.0,1.0,1.0,15,1.0,1.0,1.0,11,0.07181282504948218,0.18181818181818182,0.06153846153846154,0.0,0.0,0.0,0.0,0.0,7,0.0,0.0,0.0,9,0.0,0.0,0.0,5,0.0,0.0,0.0,6,0.18181818181818182,1.0,0.3076923076923077,6,3.103164266847601,False
28,9.241284786180008e-05,1.0,1.0,1.0,1.0,1.0,1.0,1.0,19,1.0,1.0,1.0,13,1.0,1.0,1.0,9,1.0,1.0,1.0,15,1.0,1.0,1.0,11,0.06703133739308635,0.18181818181818182,0.06153846153846154,0.0,0.0,0.0,0.0,0.0,7,0.0,0.0,0.0,9,0.0,0.0,0.0,5,0.0,0.0,0.0,6,0.18181818181818182,1.0,0.3076923076923077,6,2.335319473786336,False
29,9.165774580897601e-05,1.0,1.0,1.0,1.0,1.0,1.0,1.0,19,1.0,1.0,1.0,13,1.0,1.0,1.0,9,1.0,1.0,1.0,15,1.0,1.0,1.0,11,0.054776161080643315,0.18181818181818182,0.06153846153846154,0.0,0.0,0.0,0.0,0.0,7,0.0,0.0,0.0,9,0.0,0.0,0.0,5,0.0,0.0,0.0,6,0.18181818181818182,1.0,0.3076923076923077,6,2.9861693856113525,False
30,9.087026301348339e-05,1.0,1.0,1.0,1.0,1.0,1.0,1.0,19,1.0,1.0,1.0,13,1.0,1.0,1.0,9,1.0,1.0,1.0,15,1.0,1.0,1.0,11,0.05100538807351198,0.18181818181818182,0.06153846153846154,0.0,0.0,0.0,0.0,0.0,7,0.0,0.0,0.0,9,0.0,0.0,0.0,5,0.0,0.0,0.0,6,0.18181818181818182,1.0,0.3076923076923077,6,2.9061329144504713,False
31,9.005101902523334e-05,1.0,1.0,1.0,1.0,1.0,1.0,1.0,19,1.0,1.0,1.0,13,1.0,1.0,1.0,9,1.0,1.0,1.0,15,1.0,1.0,1.0,11,0.04286145120859146,0.3333333333333333,0.25240641711229944,0.18518518518518523,0.15384615384615397,0.0,0.0,0.0,7,0.0,0.0,0.0,9,0.0,0.0,0.0,5,0.21428571428571427,1.0,0.35294117647058826,6,1.0,0.8333333333333334,0.9090909090909091,6,4.235784091439211,True
32,8.92006583821675e-05,1.0,1.0,1.0,1.0,1.0,1.0,1.0,19,1.0,1.0,1.0,13,1.0,1.0,1.0,9,1.0,1.0,1.0,15,1.0,1.0,1.0,11,0.038103381232984034,0.18181818181818182,0.06153846153846154,0.0,0.0,0.0,0.0,0.0,7,0.0,0.0,0.0,9,0.0,0.0,0.0,5,0.0,0.0,0.0,6,0.18181818181818182,1.0,0.3076923076923077,6,2.824704333693918,False
33,8.831985010316959e-05,1.0,1.0,1.0,1.0,1.0,1.0,1.0,19,1.0,1.0,1.0,13,1.0,1.0,1.0,9,1.0,1.0,1.0,15,1.0,1.0,1.0,11,0.03043700005136319,0.18181818181818182,0.06153846153846154,0.0,0.0,0.0,0.0,0.0,7,0.0,0.0,0.0,9,0.0,0.0,0.0,5,0.0,0.0,0.0,6,0.18181818181818182,1.0,0.3076923076923077,6,2.9554947178759097,False
34,8.74092871617167e-05,1.0,1.0,1.0,1.0,1.0,1.0,1.0,19,1.0,1.0,1.0,13,1.0,1.0,1.0,9,1.0,1.0,1.0,15,1.0,1.0,1.0,11,0.026699321308353945,0.18181818181818182,0.06153846153846154,0.0,0.0,0.0,0.0,0.0,7,0.0,0.0,0.0,9,0.0,0.0,0.0,5,0.0,0.0,0.0,6,0.18181818181818182,1.0,0.3076923076923077,6,3.297574104950763,False
35,8.646968594068435e-05,1.0,1.0,1.0,1.0,1.0,1.0,1.0,19,1.0,1.0,1.0,13,1.0,1.0,1.0,9,1.0,1.0,1.0,15,1.0,1.0,1.0,11,0.03104025461891694,0.18181818181818182,0.06153846153846154,0.0,0.0,0.0,0.0,0.0,7,0.0,0.0,0.0,9,0.0,0.0,0.0,5,0.18181818181818182,1.0,0.3076923076923077,6,0.0,0.0,0.0,6,4.183162299895452,False
36,8.550178566873411e-05,1.0,1.0,1.0,1.0,1.0,1.0,1.0,19,1.0,1.0,1.0,13,1.0,1.0,1.0,9,1.0,1.0,1.0,15,1.0,1.0,1.0,11,0.02563420287541934,0.18181818181818182,0.06153846153846154,0.0,0.0,0.0,0.0,0.0,7,0.0,0.0,0.0,9,0.0,0.0,0.0,5,0.0,0.0,0.0,6,0.18181818181818182,1.0,0.3076923076923077,6,3.1957279036588253,False
37,8.450634783872766e-05,1.0,1.0,1.0,1.0,1.0,1.0,1.0,19,1.0,1.0,1.0,13,1.0,1.0,1.0,9,1.0,1.0,1.0,15,1.0,1.0,1.0,11,0.01991579763368884,0.18181818181818182,0.06153846153846154,0.0,0.0,0.0,0.0,0.0,7,0.0,0.0,0.0,9,0.0,0.0,0.0,5,0.0,0.0,0.0,6,0.18181818181818182,1.0,0.3076923076923077,6,3.2135543583327846,False
38,8.348415560862421e-05,1.0,1.0,1.0,1.0,1.0,1.0,1.0,19,1.0,1.0,1.0,13,1.0,1.0,1.0,9,1.0,1.0,1.0,15,1.0,1.0,1.0,11,0.02004152072815975,0.21212121212121213,0.11904761904761904,0.03703703703703687,0.08875739644970415,0.0,0.0,0.0,7,0.0,0.0,0.0,9,0.0,0.0,0.0,5,0.06666666666666667,0.16666666666666666,0.09523809523809523,6,0.3333333333333333,1.0,0.5,6,2.694479467539173,False
39,8.243601318533337e-05,1.0,1.0,1.0,1.0,1.0,1.0,1.0,19,1.0,1.0,1.0,13,1.0,1.0,1.0,9,1.0,1.0,1.0,15,1.0,1.0,1.0,11,0.018595840032698947,0.18181818181818182,0.06153846153846154,0.0,0.0,0.0,0.0,0.0,7,0.0,0.0,0.0,9,0.0,0.0,0.0,5,0.0,0.0,0.0,6,0.18181818181818182,1.0,0.3076923076923077,6,3.434507179899715,False
40,8.136274519200734e-05,1.0,1.0,1.0,1.0,1.0,1.0,1.0,19,1.0,1.0,1.0,13,1.0,1.0,1.0,9,1.0,1.0,1.0,15,1.0,1.0,1.0,11,0.013673850626740326,0.18181818181818182,0.06153846153846154,0.0,0.0,0.0,0.0,0.0,7,0.0,0.0,0.0,9,0.0,0.0,0.0,5,0.0,0.0,0.0,6,0.18181818181818182,1.0,0.3076923076923077,6,3.472277671426906,False
41,8.026519601927112e-05,1.0,1.0,1.0,1.0,1.0,1.0,1.0,19,1.0,1.0,1.0,13,1.0,1.0,1.0,9,1.0,1.0,1.0,15,1.0,1.0,1.0,11,0.01905862180613426,0.18181818181818182,0.06153846153846154,0.0,0.0,0.0,0.0,0.0,7,0.0,0.0,0.0,9,0.0,0.0,0.0,5,0.0,0.0,0.0,6,0.18181818181818182,1.0,0.3076923076923077,6,3.604122402282159,False
42,7.914422916090042e-05,1.0,1.0,1.0,1.0,1.0,1.0,1.0,19,1.0,1.0,1.0,13,1.0,1.0,1.0,9,1.0,1.0,1.0,15,1.0,1.0,1.0,11,0.014108885181442236,0.15151515151515152,0.05263157894736842,0.0,0.0,0.0,0.0,0.0,7,0.0,0.0,0.0,9,0.15151515151515152,1.0,0.2631578947368421,5,0.0,0.0,0.0,6,0.0,0.0,0.0,6,3.999613171162065,False
43,7.800072653447035e-05,1.0,1.0,1.0,1.0,1.0,1.0,1.0,19,1.0,1.0,1.0,13,1.0,1.0,1.0,9,1.0,1.0,1.0,15,1.0,1.0,1.0,11,0.014118664904233457,0.18181818181818182,0.06153846153846154,0.0,0.0,0.0,0.0,0.0,7,0.0,0.0,0.0,9,0.0,0.0,0.0,5,0.18181818181818182,1.0,0.3076923076923077,6,0.0,0.0,0.0,6,5.04426884149825,False
44,7.68355877875092e-05,1.0,1.0,1.0,1.0,1.0,1.0,1.0,19,1.0,1.0,1.0,13,1.0,1.0,1.0,9,1.0,1.0,1.0,15,1.0,1.0,1.0,11,0.010951812141713922,0.18181818181818182,0.06153846153846154,0.0,0.0,0.0,0.0,0.0,7,0.0,0.0,0.0,9,0.0,0.0,0.0,5,0.0,0.0,0.0,6,0.18181818181818182,1.0,0.3076923076923077,6,3.9960803752279994,False
45,7.564972958970323e-05,1.0,1.0,1.0,1.0,1.0,1.0,1.0,19,1.0,1.0,1.0,13,1.0,1.0,1.0,9,1.0,1.0,1.0,15,1.0,1.0,1.0,11,0.013059101486578583,0.18181818181818182,0.06153846153846154,0.0,0.0,0.0,0.0,0.0,7,0.0,0.0,0.0,9,0.0,0.0,0.0,5,0.0,0.0,0.0,6,0.18181818181818182,1.0,0.3076923076923077,6,3.8933568910011234,False
46,7.44440849117094e-05,1.0,1.0,1.0,1.0,1.0,1.0,1.0,19,1.0,1.0,1.0,13,1.0,1.0,1.0,9,1.0,1.0,1.0,15,1.0,1.0,1.0,11,0.011598998069790985,0.18181818181818182,0.06153846153846154,0.0,0.0,0.0,0.0,0.0,7,0.0,0.0,0.0,9,0.0,0.0,0.0,5,0.0,0.0,0.0,6,0.18181818181818182,1.0,0.3076923076923077,6,4.198539916308235,False
47,7.321960229114314e-05,1.0,1.0,1.0,1.0,1.0,1.0,1.0,19,1.0,1.0,1.0,13,1.0,1.0,1.0,9,1.0,1.0,1.0,15,1.0,1.0,1.0,11,0.0073922922650574525,0.18181818181818182,0.06153846153846154,0.0,0.0,0.0,0.0,0.0,7,0.0,0.0,0.0,9,0.0,0.0,0.0,5,0.0,0.0,0.0,6,0.18181818181818182,1.0,0.3076923076923077,6,4.277441194016754,False
48,7.197724508631915e-05,1.0,1.0,1.0,1.0,1.0,1.0,1.0,19,1.0,1.0,1.0,13,1.0,1.0,1.0,9,1.0,1.0,1.0,15,1.0,1.0,1.0,11,0.007454440250311658,0.18181818181818182,0.06153846153846154,0.0,0.0,0.0,0.0,0.0,7,0.0,0.0,0.0,9,0.0,0.0,0.0,5,0.0,0.0,0.0,6,0.18181818181818182,1.0,0.3076923076923077,6,4.258946269003009,False
49,7.071799071833184e-05,1.0,1.0,1.0,1.0,1.0,1.0,1.0,19,1.0,1.0,1.0,13,1.0,1.0,1.0,9,1.0,1.0,1.0,15,1.0,1.0,1.0,11,0.006120252358699356,0.18181818181818182,0.06153846153846154,0.0,0.0,0.0,0.0,0.0,7,0.0,0.0,0.0,9,0.0,0.0,0.0,5,0.0,0.0,0.0,6,0.18181818181818182,1.0,0.3076923076923077,6,4.419760110531596,False
50,6.944282990207198e-05,1.0,1.0,1.0,1.0,1.0,1.0,1.0,19,1.0,1.0,1.0,13,1.0,1.0,1.0,9,1.0,1.0,1.0,15,1.0,1.0,1.0,11,0.006183717761070593,0.18181818181818182,0.06153846153846154,0.0,0.0,0.0,0.0,0.0,7,0.0,0.0,0.0,9,0.0,0.0,0.0,5,0.0,0.0,0.0,6,0.18181818181818182,1.0,0.3076923076923077,6,5.3533132964867125,False
51,6.815276586678452e-05,1.0,1.0,1.0,1.0,1.0,1.0,1.0,19,1.0,1.0,1.0,13,1.0,1.0,1.0,9,1.0,1.0,1.0,15,1.0,1.0,1.0,11,0.008023018451970515,0.18181818181818182,0.06153846153846154,0.0,0.0,0.0,0.0,0.0,7,0.0,0.0,0.0,9,0.0,0.0,0.0,5,0.0,0.0,0.0,6,0.18181818181818182,1.0,0.3076923076923077,6,4.443205029668223,False
52,6.68488135667808e-05,1.0,1.0,1.0,1.0,1.0,1.0,1.0,19,1.0,1.0,1.0,13,1.0,1.0,1.0,9,1.0,1.0,1.0,15,1.0,1.0,1.0,11,0.0071925786503680995,0.18181818181818182,0.06153846153846154,0.0,0.0,0.0,0.0,0.0,7,0.0,0.0,0.0,9,0.0,0.0,0.0,5,0.0,0.0,0.0,6,0.18181818181818182,1.0,0.3076923076923077,6,5.632915445507204,False
53,6.553199888292595e-05,1.0,1.0,1.0,1.0,1.0,1.0,1.0,19,1.0,1.0,1.0,13,1.0,1.0,1.0,9,1.0,1.0,1.0,15,1.0,1.0,1.0,11,0.006324243723543416,0.18181818181818182,0.06153846153846154,0.0,0.0,0.0,0.0,0.0,7,0.0,0.0,0.0,9,0.0,0.0,0.0,5,0.0,0.0,0.0,6,0.18181818181818182,1.0,0.3076923076923077,6,5.199840802905972,False
54,6.420335781553006e-05,1.0,1.0,1.0,1.0,1.0,1.0,1.0,19,1.0,1.0,1.0,13,1.0,1.0,1.0,9,1.0,1.0,1.0,15,1.0,1.0,1.0,11,0.010113710385995723,0.18181818181818182,0.06153846153846154,0.0,0.0,0.0,0.0,0.0,7,0.0,0.0,0.0,9,0.0,0.0,0.0,5,0.18181818181818182,1.0,0.3076923076923077,6,0.0,0.0,0.0,6,6.055330025916037,False
55,6.286393566927776e-05,1.0,1.0,1.0,1.0,1.0,1.0,1.0,19,1.0,1.0,1.0,13,1.0,1.0,1.0,9,1.0,1.0,1.0,15,1.0,1.0,1.0,11,0.00526869481424245,0.18181818181818182,0.06153846153846154,0.0,0.0,0.0,0.0,0.0,7,0.0,0.0,0.0,9,0.0,0.0,0.0,5,0.0,0.0,0.0,6,0.18181818181818182,1.0,0.3076923076923077,6,4.655749693920848,False
56,6.151478623083759e-05,1.0,1.0,1.0,1.0,1.0,1.0,1.0,19,1.0,1.0,1.0,13,1.0,1.0,1.0,9,1.0,1.0,1.0,15,1.0,1.0,1.0,11,0.0063945489290080015,0.18181818181818182,0.06153846153846154,0.0,0.0,0.0,0.0,0.0,7,0.0,0.0,0.0,9,0.0,0.0,0.0,5,0.0,0.0,0.0,6,0.18181818181818182,1.0,0.3076923076923077,6,4.946088036368463,False
