epoch,lr,train_accuracy,train_macro_f1,train_cohen_kappa,train_weighted_kappa,train_precision_c0,train_recall_c0,train_f1_c0,train_support_c0,train_precision_c1,train_recall_c1,train_f1_c1,train_support_c1,train_precision_c2,train_recall_c2,train_f1_c2,train_support_c2,train_precision_c3,train_recall_c3,train_f1_c3,train_support_c3,train_precision_c4,train_recall_c4,train_f1_c4,train_support_c4,train_loss,val_accuracy,val_macro_f1,val_cohen_kappa,val_weighted_kappa,val_precision_c0,val_recall_c0,val_f1_c0,val_support_c0,val_precision_c1,val_recall_c1,val_f1_c1,val_support_c1,val_precision_c2,val_recall_c2,val_f1_c2,val_support_c2,val_precision_c3,val_recall_c3,val_f1_c3,val_support_c3,val_precision_c4,val_recall_c4,val_f1_c4,val_support_c4,val_loss,is_best
1,2.125e-05,0.26865671641791045,0.1434173669467787,0.030132939438700213,0.04133545310015885,0.3333333333333333,0.6111111111111112,0.43137254901960786,18,0.20588235294117646,0.4666666666666667,0.2857142857142857,15,0.0,0.0,0.0,10,0.0,0.0,0.0,12,0.0,0.0,0.0,12,0.7659442554658918,0.24242424242424243,0.07804878048780488,0.0,0.0,0.24242424242424243,1.0,0.3902439024390244,8,0.0,0.0,0.0,7,0.0,0.0,0.0,4,0.0,0.0,0.0,9,0.0,0.0,0.0,5,0.6909663272626472,True
2,3.25e-05,0.22388059701492538,0.07317073170731707,0.0,0.0,0.0,0.0,0.0,18,0.22388059701492538,1.0,0.36585365853658536,15,0.0,0.0,0.0,10,0.0,0.0,0.0,12,0.0,0.0,0.0,12,0.7253130421709658,0.24242424242424243,0.07804878048780488,0.0,0.0,0.24242424242424243,1.0,0.3902439024390244,8,0.0,0.0,0.0,7,0.0,0.0,0.0,4,0.0,0.0,0.0,9,0.0,0.0,0.0,5,0.6787295330654491,False
3,4.375e-05,0.22388059701492538,0.07317073170731707,0.0,0.0,0.0,0.0,0.0,18,0.22388059701492538,1.0,0.36585365853658536,15,0.0,0.0,0.0,10,0.0,0.0,0.0,12,0.0,0.0,0.0,12,0.6950370758327086,0.24242424242424243,0.07804878048780488,0.0,0.0,0.24242424242424243,1.0,0.3902439024390244,8,0.0,0.0,0.0,7,0.0,0.0,0.0,4,0.0,0.0,0.0,9,0.0,0.0,0.0,5,0.6781081733077463,False
4,5.4999999999999995e-05,0.19402985074626866,0.08764179104477612,-0.01657769036246126,0.00884203366774361,0.0,0.0,0.0,18,0.23076923076923078,0.8,0.3582089552238806,15,0.06666666666666667,0.1,0.08,10,0.0,0.0,0.0,12,0.0,0.0,0.0,12,0.6776882587973752,0.24242424242424243,0.07804878048780488,0.0,0.0,0.24242424242424243,1.0,0.3902439024390244,8,0.0,0.0,0.0,7,0.0,0.0,0.0,4,0.0,0.0,0.0,9,0.0,0.0,0.0,5,0.6868517914203682,False
5,6.625e-05,0.16417910447761194,0.07532467532467532,0.008456659619450302,-0.03324194653872525,0.0,0.0,0.0,18,0.14285714285714285,0.06666666666666667,0.09090909090909091,15,0.16666666666666666,1.0,0.2857142857142857,10,0.0,0.0,0.0,12,0.0,0.0,0.0,12,0.6733321182763399,0.24242424242424243,0.07804878048780488,0.0,0.0,0.24242424242424243,1.0,0.3902439024390244,8,0.0,0.0,0.0,7,0.0,0.0,0.0,4,0.0,0.0,0.0,9,0.0,0.0,0.0,5,0.6827562176820003,False
6,7.75e-05,0.14925373134328357,0.07087087087087088,-0.0039432176656151174,0.01200274348422492,0.0,0.0,0.0,18,0.3333333333333333,0.06666666666666667,0.1111111111111111,15,0.140625,0.9,0.24324324324324326,10,0.0,0.0,0.0,12,0.0,0.0,0.0,12,0.6619694348591477,0.24242424242424243,0.08,0.0036231884057971175,-0.028237585199610615,0.25,1.0,0.4,8,0.0,0.0,0.0,7,0.0,0.0,0.0,4,0.0,0.0,0.0,9,0.0,0.0,0.0,5,0.6970660349335334,False
7,8.875e-05,0.31343283582089554,0.17866666666666667,0.1542261251372119,0.3373124147339699,0.0,0.0,0.0,18,0.4,0.9333333333333333,0.56,15,0.21875,0.7,0.3333333333333333,10,0.0,0.0,0.0,12,0.0,0.0,0.0,12,0.6181858713947125,0.15151515151515152,0.05263157894736842,0.0,0.0,0.0,0.0,0.0,8,0.0,0.0,0.0,7,0.0,0.0,0.0,4,0.0,0.0,0.0,9,0.15151515151515152,1.0,0.2631578947368421,5,0.8167921225229899,False
8,0.0001,0.4626865671641791,0.4051391223155929,0.3238015138772078,0.6300613496932514,0.5714285714285714,0.2222222222222222,0.32,18,0.36666666666666664,0.7333333333333333,0.4888888888888889,15,0.7142857142857143,0.5,0.5882352941176471,10,0.4782608695652174,0.9166666666666666,0.6285714285714286,12,0.0,0.0,0.0,12,0.5108574468698075,0.15151515151515152,0.05263157894736842,0.0,0.0,0.0,0.0,0.0,8,0.0,0.0,0.0,7,0.0,0.0,0.0,4,0.0,0.0,0.0,9,0.15151515151515152,1.0,0.2631578947368421,5,0.9411815326623242,False
9,9.998052800596113e-05,0.6268656716417911,0.5558968058968059,0.5253612921507509,0.7576327593691217,0.7368421052631579,0.7777777777777778,0.7567567567567568,18,0.5555555555555556,0.6666666666666666,0.6060606060606061,15,1.0,0.6,0.75,10,0.5,1.0,0.6666666666666666,12,0.0,0.0,0.0,12,0.4365941173994719,0.15151515151515152,0.05263157894736842,0.0,0.0,0.0,0.0,0.0,8,0.0,0.0,0.0,7,0.0,0.0,0.0,4,0.0,0.0,0.0,9,0.15151515151515152,1.0,0.2631578947368421,5,1.050334086562648,False
10,9.992212734338192e-05,0.7313432835820896,0.6935574229691877,0.6587436332767402,0.8312814773363179,0.7083333333333334,0.9444444444444444,0.8095238095238095,18,0.8888888888888888,0.5333333333333333,0.6666666666666666,15,1.0,1.0,1.0,10,0.5454545454545454,1.0,0.7058823529411765,12,1.0,0.16666666666666666,0.2857142857142857,12,0.37071592362958994,0.15151515151515152,0.05263157894736842,0.0,0.0,0.0,0.0,0.0,8,0.0,0.0,0.0,7,0.0,0.0,0.0,4,0.0,0.0,0.0,9,0.15151515151515152,1.0,0.2631578947368421,5,1.2570670367491366,False
11,9.982484395882215e-05,0.7611940298507462,0.7606932198236547,0.6956274843838728,0.8592436974789917,0.6071428571428571,0.9444444444444444,0.7391304347826086,18,0.8,0.26666666666666666,0.4,15,1.0,1.0,1.0,10,0.7857142857142857,0.9166666666666666,0.8461538461538461,12,0.9,0.75,0.8181818181818182,12,0.32157642280877524,0.15151515151515152,0.05263157894736842,0.0,0.0,0.0,0.0,0.0,8,0.0,0.0,0.0,7,0.0,0.0,0.0,4,0.0,0.0,0.0,9,0.15151515151515152,1.0,0.2631578947368421,5,1.1410864984146272,False
12,9.96887543897155e-05,0.7910447761194029,0.794071773636991,0.7340516019279841,0.8774176685833769,0.6296296296296297,0.9444444444444444,0.7555555555555555,18,0.8333333333333334,0.3333333333333333,0.47619047619047616,15,0.9090909090909091,1.0,0.9523809523809523,10,0.9090909090909091,0.8333333333333334,0.8695652173913043,12,0.9166666666666666,0.9166666666666666,0.9166666666666666,12,0.28726675283552994,0.15151515151515152,0.05263157894736842,0.0,0.0,0.0,0.0,0.0,8,0.0,0.0,0.0,7,0.0,0.0,0.0,4,0.0,0.0,0.0,9,0.15151515151515152,1.0,0.2631578947368421,5,1.3753860401384759,False
13,9.951396570415405e-05,0.8507462686567164,0.8575900621118013,0.8099290780141843,0.9131449312937516,0.6666666666666666,1.0,0.8,18,1.0,0.4,0.5714285714285714,15,1.0,1.0,1.0,10,1.0,0.9166666666666666,0.9565217391304348,12,0.9230769230769231,1.0,0.96,12,0.2500296592712402,0.15151515151515152,0.05263157894736842,0.0,0.0,0.0,0.0,0.0,8,0.0,0.0,0.0,7,0.0,0.0,0.0,4,0.0,0.0,0.0,9,0.15151515151515152,1.0,0.2631578947368421,5,1.32690651106714,False
14,9.930061541665266e-05,0.8507462686567164,0.8636363636363636,0.8100907029478458,0.912303664921466,0.6538461538461539,0.9444444444444444,0.7727272727272727,18,0.8571428571428571,0.4,0.5454545454545454,15,1.0,1.0,1.0,10,1.0,1.0,1.0,12,1.0,1.0,1.0,12,0.2219826187660445,0.15151515151515152,0.05263157894736842,0.0,0.0,0.0,0.0,0.0,8,0.0,0.0,0.0,7,0.0,0.0,0.0,4,0.0,0.0,0.0,9,0.15151515151515152,1.0,0.2631578947368421,5,1.715605949873876,False
15,9.904887137995989e-05,0.8656716417910447,0.8742857142857143,0.828936170212766,0.9213922565506453,0.6666666666666666,1.0,0.8,18,1.0,0.4,0.5714285714285714,15,1.0,1.0,1.0,10,1.0,1.0,1.0,12,1.0,1.0,1.0,12,0.19205821178742308,0.15151515151515152,0.05263157894736842,0.0,0.0,0.0,0.0,0.0,8,0.0,0.0,0.0,7,0.0,0.0,0.0,4,0.0,0.0,0.0,9,0.15151515151515152,1.0,0.2631578947368421,5,1.5701856925481497,False
16,9.875893165300025e-05,0.8955223880597015,0.906572295247725,0.8671764372698952,0.9383624655013799,0.72,1.0,0.8372093023255814,18,1.0,0.5333333333333333,0.6956521739130435,15,1.0,1.0,1.0,10,1.0,1.0,1.0,12,1.0,1.0,1.0,12,0.17361783216248697,0.15151515151515152,0.05263157894736842,0.0,0.0,0.0,0.0,0.0,8,0.0,0.0,0.0,7,0.0,0.0,0.0,4,0.0,0.0,0.0,9,0.15151515151515152,1.0,0.2631578947368421,5,1.8146316807227905,False
17,9.843102434505193e-05,0.8805970149253731,0.8952380952380953,0.8483305036785512,0.9292689363948271,0.7083333333333334,0.9444444444444444,0.8095238095238095,18,0.8888888888888888,0.5333333333333333,0.6666666666666666,15,1.0,1.0,1.0,10,1.0,1.0,1.0,12,1.0,1.0,1.0,12,0.1614077633886195,0.15151515151515152,0.05263157894736842,0.0,0.0,0.0,0.0,0.0,8,0.0,0.0,0.0,7,0.0,0.0,0.0,4,0.0,0.0,0.0,9,0.15151515151515152,1.0,0.2631578947368421,5,1.5407084335281391,False
18,9.806540743628242e-05,0.8656716417910447,0.8742857142857143,0.828936170212766,0.9213922565506453,0.6666666666666666,1.0,0.8,18,1.0,0.4,0.5714285714285714,15,1.0,1.0,1.0,10,1.0,1.0,1.0,12,1.0,1.0,1.0,12,0.14459745583694372,0.15151515151515152,0.05263157894736842,0.0,0.0,0.0,0.0,0.0,8,0.0,0.0,0.0,7,0.0,0.0,0.0,4,0.0,0.0,0.0,9,0.15151515151515152,1.0,0.2631578947368421,5,1.7202721514108807,False
19,9.766236857478335e-05,0.8805970149253731,0.890909090909091,0.8480725623582767,0.9298429319371728,0.6923076923076923,1.0,0.8181818181818182,18,1.0,0.4666666666666667,0.6363636363636364,15,1.0,1.0,1.0,10,1.0,1.0,1.0,12,1.0,1.0,1.0,12,0.1353633397995536,0.15151515151515152,0.05263157894736842,0.0,0.0,0.0,0.0,0.0,8,0.0,0.0,0.0,7,0.0,0.0,0.0,4,0.0,0.0,0.0,9,0.15151515151515152,1.0,0.2631578947368421,5,1.7885310695327894,False
20,9.722222485026419e-05,0.8955223880597015,0.906572295247725,0.8671764372698952,0.9383624655013799,0.72,1.0,0.8372093023255814,18,1.0,0.5333333333333333,0.6956521739130435,15,1.0,1.0,1.0,10,1.0,1.0,1.0,12,1.0,1.0,1.0,12,0.12462952130321246,0.15151515151515152,0.05263157894736842,0.0,0.0,0.0,0.0,0.0,8,0.0,0.0,0.0,7,0.0,0.0,0.0,4,0.0,0.0,0.0,9,0.15151515151515152,1.0,0.2631578947368421,5,1.7960810501617614,False
21,9.674532254458269e-05,0.8955223880597015,0.9098536585365853,0.8674017528979361,0.9378561017622896,0.7391304347826086,0.9444444444444444,0.8292682926829268,18,0.9,0.6,0.72,15,1.0,1.0,1.0,10,1.0,1.0,1.0,12,1.0,1.0,1.0,12,0.10623764495796233,0.15151515151515152,0.05263157894736842,0.0,0.0,0.0,0.0,0.0,8,0.0,0.0,0.0,7,0.0,0.0,0.0,4,0.0,0.0,0.0,9,0.15151515151515152,1.0,0.2631578947368421,5,1.9931674045444738,False
22,9.623203685930869e-05,0.8955223880597015,0.906572295247725,0.8671764372698952,0.9383624655013799,0.72,1.0,0.8372093023255814,18,1.0,0.5333333333333333,0.6956521739130435,15,1.0,1.0,1.0,10,1.0,1.0,1.0,12,1.0,1.0,1.0,12,0.10181324548685729,0.30303030303030304,0.14714285714285716,0.05125000000000002,0.02880400751408896,0.0,0.0,0.0,8,0.0,0.0,0.0,7,0.0,0.0,0.0,4,0.2903225806451613,1.0,0.45,9,0.5,0.2,0.2857142857142857,5,2.5260567185026828,True
23,9.568277162053529e-05,0.9253731343283582,0.9356097560975609,0.9052869663556686,0.9556115012587784,0.782608695652174,1.0,0.8780487804878049,18,1.0,0.6666666666666666,0.8,15,1.0,1.0,1.0,10,1.0,1.0,1.0,12,1.0,1.0,1.0,12,0.08892769795745166,0.15151515151515152,0.05263157894736842,0.0,0.0,0.0,0.0,0.0,8,0.0,0.0,0.0,7,0.0,0.0,0.0,4,0.0,0.0,0.0,9,0.15151515151515152,1.0,0.2631578947368421,5,1.7549583290562485,False
24,9.509795896116975e-05,0.9253731343283582,0.9373219373219375,0.9054473609935083,0.9552438209752839,0.8095238095238095,0.9444444444444444,0.8717948717948718,18,0.9166666666666666,0.7333333333333333,0.8148148148148148,15,1.0,1.0,1.0,10,1.0,1.0,1.0,12,1.0,1.0,1.0,12,0.08893709129361964,0.15151515151515152,0.05263157894736842,0.0,0.0,0.0,0.0,0.0,8,0.0,0.0,0.0,7,0.0,0.0,0.0,4,0.0,0.0,0.0,9,0.15151515151515152,1.0,0.2631578947368421,5,2.2228983645938865,False
25,9.447805898095418e-05,0.9701492537313433,0.9751879699248122,0.9622109419063734,0.9820230748591361,0.9,1.0,0.9473684210526315,18,1.0,0.8666666666666667,0.9285714285714286,15,1.0,1.0,1.0,10,1.0,1.0,1.0,12,1.0,1.0,1.0,12,0.07799467214230281,0.30303030303030304,0.14714285714285716,0.05125000000000002,0.02880400751408896,0.0,0.0,0.0,8,0.0,0.0,0.0,7,0.0,0.0,0.0,4,0.2903225806451613,1.0,0.45,9,0.5,0.2,0.2857142857142857,5,3.15348196533518,False
26,9.382355938448331e-05,0.9701492537313433,0.9751879699248122,0.9622109419063734,0.9820230748591361,0.9,1.0,0.9473684210526315,18,1.0,0.8666666666666667,0.9285714285714286,15,1.0,1.0,1.0,10,1.0,1.0,1.0,12,1.0,1.0,1.0,12,0.06503217038489989,0.15151515151515152,0.05263157894736842,0.0,0.0,0.0,0.0,0.0,8,0.0,0.0,0.0,7,0.0,0.0,0.0,4,0.0,0.0,0.0,9,0.15151515151515152,1.0,0.2631578947368421,5,2.7144789319419576,False
27,9.313497509750425e-05,1.0,1.0,1.0,1.0,1.0,1.0,1.0,18,1.0,1.0,1.0,15,1.0,1.0,1.0,10,1.0,1.0,1.0,12,1.0,1.0,1.0,12,0.061733784237459524,0.15151515151515152,0.05263157894736842,0.0,0.0,0.0,0.0,0.0,8,0.0,0.0,0.0,7,0.0,0.0,0.0,4,0.0,0.0,0.0,9,0.15151515151515152,1.0,0.2631578947368421,5,2.9449556379367343,False
28,9.241284786180008e-05,1.0,1.0,1.0,1.0,1.0,1.0,1.0,18,1.0,1.0,1.0,15,1.0,1.0,1.0,10,1.0,1.0,1.0,12,1.0,1.0,1.0,12,0.049177892978734046,0.12121212121212122,0.04444444444444444,-0.005252100840336116,-0.020129403306973437,0.0,0.0,0.0,8,0.0,0.0,0.0,7,0.125,1.0,0.2222222222222222,4,0.0,0.0,0.0,9,0.0,0.0,0.0,5,3.3157896742187063,False
29,9.165774580897601e-05,1.0,1.0,1.0,1.0,1.0,1.0,1.0,18,1.0,1.0,1.0,15,1.0,1.0,1.0,10,1.0,1.0,1.0,12,1.0,1.0,1.0,12,0.051992814031554695,0.15151515151515152,0.05263157894736842,0.0,0.0,0.0,0.0,0.0,8,0.0,0.0,0.0,7,0.0,0.0,0.0,4,0.0,0.0,0.0,9,0.15151515151515152,1.0,0.2631578947368421,5,2.840984425703628,False
30,9.087026301348339e-05,1.0,1.0,1.0,1.0,1.0,1.0,1.0,18,1.0,1.0,1.0,15,1.0,1.0,1.0,10,1.0,1.0,1.0,12,1.0,1.0,1.0,12,0.04560937506160629,0.15151515151515152,0.05263157894736842,0.0,0.0,0.0,0.0,0.0,8,0.0,0.0,0.0,7,0.0,0.0,0.0,4,0.0,0.0,0.0,9,0.15151515151515152,1.0,0.2631578947368421,5,2.805491676730941,False
31,9.005101902523334e-05,1.0,1.0,1.0,1.0,1.0,1.0,1.0,18,1.0,1.0,1.0,15,1.0,1.0,1.0,10,1.0,1.0,1.0,12,1.0,1.0,1.0,12,0.034714494831860065,0.15151515151515152,0.05263157894736842,0.0,0.0,0.0,0.0,0.0,8,0.0,0.0,0.0,7,0.0,0.0,0.0,4,0.0,0.0,0.0,9,0.15151515151515152,1.0,0.2631578947368421,5,2.872200292541711,False
32,8.92006583821675e-05,1.0,1.0,1.0,1.0,1.0,1.0,1.0,18,1.0,1.0,1.0,15,1.0,1.0,1.0,10,1.0,1.0,1.0,12,1.0,1.0,1.0,12,0.03990014052268729,0.15151515151515152,0.05263157894736842,0.0,0.0,0.0,0.0,0.0,8,0.0,0.0,0.0,7,0.0,0.0,0.0,4,0.0,0.0,0.0,9,0.15151515151515152,1.0,0.2631578947368421,5,2.8497337202899007,False
33,8.831985010316959e-05,1.0,1.0,1.0,1.0,1.0,1.0,1.0,18,1.0,1.0,1.0,15,1.0,1.0,1.0,10,1.0,1.0,1.0,12,1.0,1.0,1.0,12,0.03128167939191656,0.15151515151515152,0.05263157894736842,0.0,0.0,0.0,0.0,0.0,8,0.0,0.0,0.0,7,0.0,0.0,0.0,4,0.0,0.0,0.0,9,0.15151515151515152,1.0,0.2631578947368421,5,3.053692099759167,False
34,8.74092871617167e-05,1.0,1.0,1.0,1.0,1.0,1.0,1.0,18,1.0,1.0,1.0,15,1.0,1.0,1.0,10,1.0,1.0,1.0,12,1.0,1.0,1.0,12,0.02761428213692201,0.15151515151515152,0.05263157894736842,0.0,0.0,0.0,0.0,0.0,8,0.0,0.0,0.0,7,0.0,0.0,0.0,4,0.0,0.0,0.0,9,0.15151515151515152,1.0,0.2631578947368421,5,2.9881424299220205,False
35,8.646968594068435e-05,1.0,1.0,1.0,1.0,1.0,1.0,1.0,18,1.0,1.0,1.0,15,1.0,1.0,1.0,10,1.0,1.0,1.0,12,1.0,1.0,1.0,12,0.03009397555837658,0.15151515151515152,0.05263157894736842,0.0,0.0,0.0,0.0,0.0,8,0.0,0.0,0.0,7,0.0,0.0,0.0,4,0.0,0.0,0.0,9,0.15151515151515152,1.0,0.2631578947368421,5,3.0990859503051116,False
36,8.550178566873411e-05,1.0,1.0,1.0,1.0,1.0,1.0,1.0,18,1.0,1.0,1.0,15,1.0,1.0,1.0,10,1.0,1.0,1.0,12,1.0,1.0,1.0,12,0.028446381797652635,0.12121212121212122,0.043243243243243246,0.0,0.0,0.0,0.0,0.0,8,0.0,0.0,0.0,7,0.12121212121212122,1.0,0.21621621621621623,4,0.0,0.0,0.0,9,0.0,0.0,0.0,5,3.9921384118647887,False
37,8.450634783872766e-05,1.0,1.0,1.0,1.0,1.0,1.0,1.0,18,1.0,1.0,1.0,15,1.0,1.0,1.0,10,1.0,1.0,1.0,12,1.0,1.0,1.0,12,0.02294400253041244,0.15151515151515152,0.05263157894736842,0.0,0.0,0.0,0.0,0.0,8,0.0,0.0,0.0,7,0.0,0.0,0.0,4,0.0,0.0,0.0,9,0.15151515151515152,1.0,0.2631578947368421,5,3.337280021466296,False
38,8.348415560862421e-05,1.0,1.0,1.0,1.0,1.0,1.0,1.0,18,1.0,1.0,1.0,15,1.0,1.0,1.0,10,1.0,1.0,1.0,12,1.0,1.0,1.0,12,0.018211811716988015,0.15151515151515152,0.05263157894736842,0.0,0.0,0.0,0.0,0.0,8,0.0,0.0,0.0,7,0.0,0.0,0.0,4,0.0,0.0,0.0,9,0.15151515151515152,1.0,0.2631578947368421,5,3.4384308558341936,False
39,8.243601318533337e-05,1.0,1.0,1.0,1.0,1.0,1.0,1.0,18,1.0,1.0,1.0,15,1.0,1.0,1.0,10,1.0,1.0,1.0,12,1.0,1.0,1.0,12,0.02615611587247964,0.3939393939393939,0.24796380090497738,0.19902912621359226,0.14409221902017266,0.0,0.0,0.0,8,0.0,0.0,0.0,7,0.0,0.0,0.0,4,0.32,0.8888888888888888,0.47058823529411764,9,0.625,1.0,0.7692307692307693,5,4.235886638570869,True
40,8.136274519200734e-05,1.0,1.0,1.0,1.0,1.0,1.0,1.0,18,1.0,1.0,1.0,15,1.0,1.0,1.0,10,1.0,1.0,1.0,12,1.0,1.0,1.0,12,0.01894792799330525,0.15151515151515152,0.05263157894736842,0.0,0.0,0.0,0.0,0.0,8,0.0,0.0,0.0,7,0.0,0.0,0.0,4,0.0,0.0,0.0,9,0.15151515151515152,1.0,0.2631578947368421,5,3.5772074104586586,False
41,8.026519601927112e-05,1.0,1.0,1.0,1.0,1.0,1.0,1.0,18,1.0,1.0,1.0,15,1.0,1.0,1.0,10,1.0,1.0,1.0,12,1.0,1.0,1.0,12,0.019550377781044192,0.15151515151515152,0.05263157894736842,0.0,0.0,0.0,0.0,0.0,8,0.0,0.0,0.0,7,0.0,0.0,0.0,4,0.0,0.0,0.0,9,0.15151515151515152,1.0,0.2631578947368421,5,3.6415027498508654,False
42,7.914422916090042e-05,1.0,1.0,1.0,1.0,1.0,1.0,1.0,18,1.0,1.0,1.0,15,1.0,1.0,1.0,10,1.0,1.0,1.0,12,1.0,1.0,1.0,12,0.018282409664938475,0.30303030303030304,0.1423076923076923,0.05597014925373134,0.022222222222222254,0.0,0.0,0.0,8,0.0,0.0,0.0,7,0.0,0.0,0.0,4,0.3,1.0,0.46153846153846156,9,0.3333333333333333,0.2,0.25,5,2.450502996248866,False
43,7.800072653447035e-05,1.0,1.0,1.0,1.0,1.0,1.0,1.0,18,1.0,1.0,1.0,15,1.0,1.0,1.0,10,1.0,1.0,1.0,12,1.0,1.0,1.0,12,0.018122482661908464,0.15151515151515152,0.05263157894736842,0.0,0.0,0.0,0.0,0.0,8,0.0,0.0,0.0,7,0.0,0.0,0.0,4,0.0,0.0,0.0,9,0.15151515151515152,1.0,0.2631578947368421,5,3.8235072392222444,False
44,7.68355877875092e-05,1.0,1.0,1.0,1.0,1.0,1.0,1.0,18,1.0,1.0,1.0,15,1.0,1.0,1.0,10,1.0,1.0,1.0,12,1.0,1.0,1.0,12,0.01567451252859197,0.15151515151515152,0.05263157894736842,0.0,0.0,0.0,0.0,0.0,8,0.0,0.0,0.0,7,0.0,0.0,0.0,4,0.0,0.0,0.0,9,0.15151515151515152,1.0,0.2631578947368421,5,3.9205181584846653,False
45,7.564972958970323e-05,1.0,1.0,1.0,1.0,1.0,1.0,1.0,18,1.0,1.0,1.0,15,1.0,1.0,1.0,10,1.0,1.0,1.0,12,1.0,1.0,1.0,12,0.010058920429463485,0.15151515151515152,0.05263157894736842,0.0,0.0,0.0,0.0,0.0,8,0.0,0.0,0.0,7,0.0,0.0,0.0,4,0.0,0.0,0.0,9,0.15151515151515152,1.0,0.2631578947368421,5,4.234158292805204,False
46,7.44440849117094e-05,1.0,1.0,1.0,1.0,1.0,1.0,1.0,18,1.0,1.0,1.0,15,1.0,1.0,1.0,10,1.0,1.0,1.0,12,1.0,1.0,1.0,12,0.014187276683080553,0.15151515151515152,0.05263157894736842,0.0,0.0,0.0,0.0,0.0,8,0.0,0.0,0.0,7,0.0,0.0,0.0,4,0.0,0.0,0.0,9,0.15151515151515152,1.0,0.2631578947368421,5,4.097597389884359,False
47,7.321960229114314e-05,1.0,1.0,1.0,1.0,1.0,1.0,1.0,18,1.0,1.0,1.0,15,1.0,1.0,1.0,10,1.0,1.0,1.0,12,1.0,1.0,1.0,12,0.013407552753116435,0.15151515151515152,0.05263157894736842,0.0,0.0,0.0,0.0,0.0,8,0.0,0.0,0.0,7,0.0,0.0,0.0,4,0.0,0.0,0.0,9,0.15151515151515152,1.0,0.2631578947368421,5,4.2099126481205476,False
48,7.197724508631915e-05,1.0,1.0,1.0,1.0,1.0,1.0,1.0,18,1.0,1.0,1.0,15,1.0,1.0,1.0,10,1.0,1.0,1.0,12,1.0,1.0,1.0,12,0.011429077059155636,0.15151515151515152,0.05263157894736842,0.0,0.0,0.0,0.0,0.0,8,0.0,0.0,0.0,7,0.0,0.0,0.0,4,0.0,0.0,0.0,9,0.15151515151515152,1.0,0.2631578947368421,5,4.348393700389539,False
49,7.071799071833184e-05,1.0,1.0,1.0,1.0,1.0,1.0,1.0,18,1.0,1.0,1.0,15,1.0,1.0,1.0,10,1.0,1.0,1.0,12,1.0,1.0,1.0,12,0.01279432533201136,0.15151515151515152,0.05263157894736842,0.0,0.0,0.0,0.0,0.0,8,0.0,0.0,0.0,7,0.0,0.0,0.0,4,0.0,0.0,0.0,9,0.15151515151515152,1.0,0.2631578947368421,5,4.927335794674016,False
50,6.944282990207198e-05,1.0,1.0,1.0,1.0,1.0,1.0,1.0,18,1.0,1.0,1.0,15,1.0,1.0,1.0,10,1.0,1.0,1.0,12,1.0,1.0,1.0,12,0.007320241136007261,0.15151515151515152,0.05263157894736842,0.0,0.0,0.0,0.0,0.0,8,0.0,0.0,0.0,7,0.0,0.0,0.0,4,0.0,0.0,0.0,9,0.15151515151515152,1.0,0.2631578947368421,5,4.362634399162448,False
51,6.815276586678452e-05,1.0,1.0,1.0,1.0,1.0,1.0,1.0,18,1.0,1.0,1.0,15,1.0,1.0,1.0,10,1.0,1.0,1.0,12,1.0,1.0,1.0,12,0.006208448974961248,0.15151515151515152,0.05263157894736842,0.0,0.0,0.0,0.0,0.0,8,0.0,0.0,0.0,7,0.0,0.0,0.0,4,0.0,0.0,0.0,9,0.15151515151515152,1.0,0.2631578947368421,5,4.340600207241692,False
52,6.68488135667808e-05,1.0,1.0,1.0,1.0,1.0,1.0,1.0,18,1.0,1.0,1.0,15,1.0,1.0,1.0,10,1.0,1.0,1.0,12,1.0,1.0,1.0,12,0.009748398776795132,0.15151515151515152,0.05263157894736842,0.0,0.0,0.0,0.0,0.0,8,0.0,0.0,0.0,7,0.0,0.0,0.0,4,0.0,0.0,0.0,9,0.15151515151515152,1.0,0.2631578947368421,5,5.136617347777719,False
53,6.553199888292595e-05,1.0,1.0,1.0,1.0,1.0,1.0,1.0,18,1.0,1.0,1.0,15,1.0,1.0,1.0,10,1.0,1.0,1.0,12,1.0,1.0,1.0,12,0.01426062592176665,0.15151515151515152,0.05263157894736842,0.0,0.0,0.0,0.0,0.0,8,0.0,0.0,0.0,7,0.0,0.0,0.0,4,0.0,0.0,0.0,9,0.15151515151515152,1.0,0.2631578947368421,5,4.523596029623495,False
54,6.420335781553006e-05,1.0,1.0,1.0,1.0,1.0,1.0,1.0,18,1.0,1.0,1.0,15,1.0,1.0,1.0,10,1.0,1.0,1.0,12,1.0,1.0,1.0,12,0.00814806386974376,0.15151515151515152,0.05263157894736842,0.0,0.0,0.0,0.0,0.0,8,0.0,0.0,0.0,7,0.0,0.0,0.0,4,0.0,0.0,0.0,9,0.15151515151515152,1.0,0.2631578947368421,5,4.882199634941817,False
55,6.286393566927776e-05,1.0,1.0,1.0,1.0,1.0,1.0,1.0,18,1.0,1.0,1.0,15,1.0,1.0,1.0,10,1.0,1.0,1.0,12,1.0,1.0,1.0,12,0.012128359126274598,0.15151515151515152,0.05263157894736842,0.0,0.0,0.0,0.0,0.0,8,0.0,0.0,0.0,7,0.0,0.0,0.0,4,0.0,0.0,0.0,9,0.15151515151515152,1.0,0.2631578947368421,5,4.855372751737319,False
56,6.151478623083759e-05,1.0,1.0,1.0,1.0,1.0,1.0,1.0,18,1.0,1.0,1.0,15,1.0,1.0,1.0,10,1.0,1.0,1.0,12,1.0,1.0,1.0,12,0.007118762336122289,0.15151515151515152,0.05263157894736842,0.0,0.0,0.0,0.0,0.0,8,0.0,0.0,0.0,7,0.0,0.0,0.0,4,0.0,0.0,0.0,9,0.15151515151515152,1.0,0.2631578947368421,5,4.865333446134158,False
57,6.015697093979839e-05,1.0,1.0,1.0,1.0,1.0,1.0,1.0,18,1.0,1.0,1.0,15,1.0,1.0,1.0,10,1.0,1.0,1.0,12,1.0,1.0,1.0,12,0.0084369776810436,0.3333333333333333,0.21782661782661786,0.16551724137931023,0.28683693516699404,0.0,0.0,0.0,8,0.0,0.0,0.0,7,0.07142857142857142,0.25,0.1111111111111111,4,0.5294117647058824,1.0,0.6923076923076923,9,0.5,0.2,0.2857142857142857,5,4.624097282372458,False
58,5.879155805358448e-05,1.0,1.0,1.0,1.0,1.0,1.0,1.0,18,1.0,1.0,1.0,15,1.0,1.0,1.0,10,1.0,1.0,1.0,12,1.0,1.0,1.0,12,0.00876304460702457,0.30303030303030304,0.14714285714285716,0.05125000000000002,0.02880400751408896,0.0,0.0,0.0,8,0.0,0.0,0.0,7,0.0,0.0,0.0,4,0.2903225806451613,1.0,0.45,9,0.5,0.2,0.2857142857142857,5,4.012063251725972,False
59,5.741962180700726e-05,1.0,1.0,1.0,1.0,1.0,1.0,1.0,18,1.0,1.0,1.0,15,1.0,1.0,1.0,10,1.0,1.0,1.0,12,1.0,1.0,1.0,12,0.006582798717896204,0.15151515151515152,0.05263157894736842,0.0,0.0,0.0,0.0,0.0,8,0.0,0.0,0.0,7,0.0,0.0,0.0,4,0.0,0.0,0.0,9,0.15151515151515152,1.0,0.2631578947368421,5,4.8595216771754455,False
60,5.6042241567113755e-05,1.0,1.0,1.0,1.0,1.0,1.0,1.0,18,1.0,1.0,1.0,15,1.0,1.0,1.0,10,1.0,1.0,1.0,12,1.0,1.0,1.0,12,0.007614363918607401,0.30303030303030304,0.1424242424242424,0.09210526315789469,0.1395045632333768,0.0,0.0,0.0,8,0.0,0.0,0.0,7,0.125,0.25,0.16666666666666666,4,0.375,1.0,0.5454545454545454,9,0.0,0.0,0.0,5,4.951364714543176,False
61,5.4660500983997785e-05,1.0,1.0,1.0,1.0,1.0,1.0,1.0,18,1.0,1.0,1.0,15,1.0,1.0,1.0,10,1.0,1.0,1.0,12,1.0,1.0,1.0,12,0.004034673500373445,0.15151515151515152,0.05263157894736842,0.0,0.0,0.0,0.0,0.0,8,0.0,0.0,0.0,7,0.0,0.0,0.0,4,0.0,0.0,0.0,9,0.15151515151515152,1.0,0.2631578947368421,5,5.066616168278499,False
62,5.327548713824102e-05,1.0,1.0,1.0,1.0,1.0,1.0,1.0,18,1.0,1.0,1.0,15,1.0,1.0,1.0,10,1.0,1.0,1.0,12,1.0,1.0,1.0,12,0.005571260236406963,0.15151515151515152,0.05263157894736842,0.0,0.0,0.0,0.0,0.0,8,0.0,0.0,0.0,7,0.0,0.0,0.0,4,0.0,0.0,0.0,9,0.15151515151515152,1.0,0.2631578947368421,5,5.126682903784787,False
63,5.1888289685655545e-05,1.0,1.0,1.0,1.0,1.0,1.0,1.0,18,1.0,1.0,1.0,15,1.0,1.0,1.0,10,1.0,1.0,1.0,12,1.0,1.0,1.0,12,0.004695166858849672,0.15151515151515152,0.05263157894736842,0.0,0.0,0.0,0.0,0.0,8,0.0,0.0,0.0,7,0.0,0.0,0.0,4,0.0,0.0,0.0,9,0.15151515151515152,1.0,0.2631578947368421,5,5.129797395108096,False
64,5.050000000000003e-05,1.0,1.0,1.0,1.0,1.0,1.0,1.0,18,1.0,1.0,1.0,15,1.0,1.0,1.0,10,1.0,1.0,1.0,12,1.0,1.0,1.0,12,0.007892608588540566,0.15151515151515152,0.05263157894736842,0.0,0.0,0.0,0.0,0.0,8,0.0,0.0,0.0,7,0.0,0.0,0.0,4,0.0,0.0,0.0,9,0.15151515151515152,1.0,0.2631578947368421,5,5.142910486940794,False
