epoch,lr,train_mae,train_rmse,train_r2,train_pearson_r,train_spearman_r,train_nmae,train_ba_mean_diff,train_ba_loa_upper,train_ba_loa_lower,train_rounded_acc_1,train_tolerance_acc_1p5,train_loss,val_mae,val_rmse,val_r2,val_pearson_r,val_spearman_r,val_nmae,val_ba_mean_diff,val_ba_loa_upper,val_ba_loa_lower,val_rounded_acc_1,val_tolerance_acc_1p5,val_loss,is_best
1,2.125e-05,5.844718712479321,6.520905360604368,-0.02123000938866504,0.3348619205457063,0.32514783917799106,0.29223593562396605,-1.0577702379938383,11.553931791992207,-13.669472267979883,0.05970149253731343,0.05970149253731343,6.0491172733591565,6.238675117492676,6.6627462428317665,-0.003218481438234555,0.5130757203372762,0.5556320236364168,0.3119337558746338,-0.7566324869791666,12.217870950591967,-13.7311359245503,0.030303030303030304,0.030303030303030304,5.736622573390152,True
2,3.25e-05,5.760776612296033,6.428556599998604,0.0074903962374031074,0.3984401464031725,0.40034502673545486,0.2880388306148017,-0.4925768197472416,12.07035169199816,-13.055505331492645,0.08955223880597014,0.08955223880597014,5.957490367320046,6.2553691141533125,6.681464424271429,-0.008863241942067557,0.4742515123686029,0.49262911625182915,0.31276845570766565,-0.7682007442821156,12.240624233294499,-13.77702572185873,0.030303030303030304,0.030303030303030304,5.755825639493538,False
3,4.375e-05,5.59000981743656,6.285472589459557,0.05118040004808544,0.7446442789663065,0.7351525046342585,0.279500490871828,0.06709629742067251,12.385920636591187,-12.251728041749843,0.11940298507462686,0.11940298507462686,5.768355779505487,6.065096522822524,6.566420865048322,0.025579510212298096,0.6615460299020423,0.613608103304149,0.3032548261411262,0.3828904845497825,13.231176790633308,-12.465395821533741,0.030303030303030304,0.030303030303030304,5.564779961711229,True
4,5.4999999999999995e-05,4.523421152314143,5.247519949120443,0.3386734318879484,0.8952021609862088,0.8925666172046833,0.22617105761570716,0.28275704028001475,10.552953944977524,-9.987439864417496,0.14925373134328357,0.14925373134328357,4.677161319931941,5.812693436940511,7.291477036487014,-0.2014895637891052,0.7618751605660168,0.7915578044808302,0.2906346718470255,3.6722395781314736,16.01872964094481,-8.67425048468186,0.15151515151515152,0.15151515151515152,5.344150714305314,True
5,6.625e-05,2.1594042137487612,2.911869743308226,0.79636535802802,0.923240307029592,0.9083460270405449,0.10797021068743806,0.4983655303271849,6.121419774792078,-5.124688714137709,0.5223880597014925,0.5223880597014925,2.7422405826511667,5.622205185167717,6.087121067970302,0.16263875417358498,0.7539042141185432,0.7748017120913122,0.28111025925838584,0.3658697243892785,12.275056535278333,-11.543317086499775,0.06060606060606061,0.06060606060606061,5.153261147123395,False
6,7.75e-05,1.8222979182627663,2.3629446690904854,0.8659042917666782,0.9386035025875861,0.9162657308364904,0.09111489591313832,0.3889561446745004,4.957152589612327,-4.179240300263326,0.5074626865671642,0.5074626865671642,2.3176213442389644,5.7097359281597715,6.64760947155857,0.0013346678334684725,0.5764057143063053,0.7489973298114545,0.2854867964079886,1.9221287062673857,14.394896812690483,-10.550639400155713,0.06060606060606061,0.06060606060606061,5.195648209795808,False
7,8.875e-05,1.490584273836506,1.982692662858459,0.9055898749856159,0.9580953267487208,0.9541443141433618,0.0745292136918253,0.37389882642831374,4.190250789429391,-3.4424531365727637,0.5970149253731343,0.5970149253731343,2.010189435731119,7.378472183689927,9.763513675167081,-1.1542755669784,0.5414872676135624,0.6524822376478308,0.36892360918449635,7.154721231171579,20.175991725125247,-5.866549262782089,0.30303030303030304,0.30303030303030304,6.911789085738587,True
8,0.0001,1.3197858867360586,1.7488739152543091,0.9265444230401672,0.9681855354234682,0.968423780078476,0.06598929433680292,0.28071286073371543,3.664061352940284,-3.1026356314728534,0.6865671641791045,0.6865671641791045,1.8435762006845047,7.1693853031505235,9.550735993562585,-1.0614018361915627,0.6230527020185377,0.5945061579800985,0.3584692651575262,6.8905705827655215,19.852765751513296,-6.071624585982255,0.30303030303030304,0.30303030303030304,6.725057960937571,True
9,9.998052800596113e-05,1.1804122391031748,1.554789866034017,0.9419434564182105,0.9742064529192279,0.9707836918156517,0.059020611955158744,0.2382612762166493,3.249655112527864,-2.7731325600945658,0.7164179104477612,0.7164179104477612,1.7021787138127569,6.0646256100047715,6.48353436499304,0.050024046406413114,0.6843434564288964,0.6849890568834958,0.30323128050023856,-1.055795886299827,11.482309392782934,-13.593901165382587,0.030303030303030304,0.030303030303030304,5.554312337287748,False
10,9.992212734338192e-05,1.016977393805091,1.2918003091985004,0.9599226920060737,0.9814967657063081,0.9703037097674124,0.05084886969025455,0.20089773455662513,2.7020206573952295,-2.300225188281979,0.7313432835820896,0.7313432835820896,1.5030189414522541,6.546580292961814,7.539747970725587,-0.28470269806142623,0.768344552814509,0.771785615461199,0.3273290146480907,-3.85923678224737,8.836070842249713,-16.554544406744455,0.15151515151515152,0.15151515151515152,6.059717877766099,False
11,9.982484395882215e-05,0.8956157058032591,1.114430505471537,0.9701727127288583,0.986262983318637,0.9717636551641398,0.04478078529016295,0.12316618036867967,2.2940689787222066,-2.047736617984847,0.8208955223880597,0.8208955223880597,1.4022649889561667,5.337850599577933,6.187308758368034,0.13484772241781362,0.747792714821654,0.8208809661624866,0.2668925299788966,2.0906647768887607,13.50451580233273,-9.323186248555206,0.15151515151515152,0.15151515151515152,4.847755997108691,False
12,9.96887543897155e-05,0.8695815410186996,1.037036799617407,0.9741716829217616,0.9876792658920621,0.9756435100540727,0.043479077050934976,0.12362783880376105,2.141725048133958,-1.8944693705264357,0.8656716417910447,0.8656716417910447,1.310263800265184,5.31939765178796,6.547105564550869,0.03130364620438397,0.7433426207135576,0.8436692518122311,0.265969882589398,3.1371375141721782,14.400396419963329,-8.126121391618973,0.18181818181818182,0.18181818181818182,4.86688047125183,False
13,9.951396570415405e-05,0.8245936792288253,0.9732570460482168,0.9772509698175805,0.9889243047116564,0.9778434277751689,0.04122968396144126,0.07696562382712294,1.9785753312511456,-1.8246440835968996,0.8507462686567164,0.8507462686567164,1.2438570227195966,5.707823811155377,7.2298144827218715,-0.1812539804107267,0.8669928410159926,0.8336155963785202,0.28539119055776885,3.6549253752737334,15.881263033412768,-8.571412282865303,0.18181818181818182,0.18181818181818182,5.23834428598427,False
14,9.930061541665266e-05,0.7713799049605184,0.9171273259106715,0.9797992710773777,0.9901751057808298,0.9791233799038065,0.03856899524802592,0.07585968544234091,1.8672694918131836,-1.7155501209285016,0.8805970149253731,0.8805970149253731,1.186211587066081,7.55114136320172,9.927634666618003,-1.227309410027536,0.536287383458211,0.659184674603638,0.377557068160086,7.399858156840007,20.37144991281469,-5.571733599134675,0.2727272727272727,0.2727272727272727,7.065049686696795,False
15,9.904887137995989e-05,0.7188692791248436,0.8649746288872939,0.9820313887852734,0.9911581128631728,0.9811433043568129,0.03594346395624218,0.03621340376227649,1.7300772211520905,-1.6576504136275374,0.9402985074626866,0.9402985074626866,1.1403345431854475,7.759114467736446,10.131565980774537,-1.3197550681417787,0.7273433482621914,0.729895384487404,0.3879557233868223,7.662549914735736,20.65395835094514,-5.328858521473665,0.24242424242424243,0.24242424242424243,7.29487076042728,False
16,9.875893165300025e-05,0.661605211781032,0.7928596478830604,0.9849026610903839,0.9925048518295866,0.9844031824344368,0.0330802605890516,0.018294943357581524,1.5718860920498714,-1.5352962053347086,0.9402985074626866,0.9402985074626866,1.1003068742467397,5.634934382005171,6.227289177682305,0.12363092227940964,0.5878520586431044,0.815686577521736,0.28174671910025856,1.1164945978106875,13.124205542206939,-10.891216346585564,0.06060606060606061,0.06060606060606061,5.149305320689172,False
17,9.843102434505193e-05,0.6065423439687757,0.7449991748356404,0.986670331244313,0.9933445683176618,0.9854031450349352,0.030327117198438787,0.021967742425292286,1.4815311808850256,-1.4375956960344412,0.9402985074626866,0.9402985074626866,1.04693525584776,7.596086097486092,9.931757607139012,-1.2291597946132522,0.7652972779083907,0.8828785080037033,0.3798043048743046,7.462253801750414,20.308043166606463,-5.383535563105635,0.24242424242424243,0.24242424242424243,7.128949535495103,False
18,9.806540743628242e-05,0.6132424811818706,0.7392546595157796,0.9868751026659144,0.9934883108552145,0.9848231667266462,0.03066212405909353,0.04821798605705375,1.4940717094051827,-1.3976357372910753,0.9701492537313433,0.9701492537313433,1.0631700462369778,6.060112678643429,8.10248350032493,-0.4836289145168524,0.8287647986927417,0.8429990081166505,0.30300563393217145,5.577243443691369,17.097074779766203,-5.942587892383463,0.36363636363636365,0.36363636363636365,5.600243941957903,True
19,9.766236857478335e-05,0.6075761883116481,0.7483217594419868,0.9865511694659984,0.9932756068225832,0.9829032385336895,0.0303788094155824,0.024595227259308544,1.4905134534159756,-1.4413229988973584,0.9552238805970149,0.9552238805970149,1.0113682910577575,6.026459972063701,7.209106893227135,-0.17449699040414157,0.7984824953490033,0.8076436531747674,0.301322998603185,-4.296503511342135,7.049726363979395,-15.642733386663664,0.21212121212121213,0.21212121212121213,5.563059694545738,False
20,9.722222485026419e-05,0.5601523340638004,0.7050022980549486,0.9880631746656777,0.9940568742040592,0.9863431098794033,0.02800761670319002,0.04374701585342635,1.4228886432254062,-1.3353946115185535,0.9850746268656716,0.9850746268656716,0.9736127066968092,5.226765993869666,5.565850213054193,0.29991300989799874,0.8349422632767091,0.8805326550691707,0.2613382996934833,-0.34640695109511865,10.541510510381196,-11.234324412571434,0.030303030303030304,0.030303030303030304,4.742486971074885,False
21,9.674532254458269e-05,0.5406401370888325,0.6622096145225651,0.9894682937407667,0.994731178435884,0.9893629969329081,0.027032006854441626,-0.0005584741706278787,1.297371908724364,-1.29848885706562,1.0,1.0,0.9388981132364985,7.408556360186952,9.69927544844313,-1.126021068746915,0.8564965747477911,0.8736626571894683,0.3704278180093476,7.286901213906028,19.83350635355621,-5.2597039257441525,0.2727272727272727,0.2727272727272727,6.93972546051849,False
22,9.623203685930869e-05,0.5577919541010216,0.6725029859853658,0.989138339906113,0.9945581788529994,0.9884230320884397,0.02788959770505108,0.0005666422310160168,1.318672026865815,-1.317538742403783,0.9850746268656716,0.9850746268656716,0.9369653787185896,7.920944445060961,10.25716765938205,-1.3776278919984426,0.8667715251551606,0.874165339961154,0.39604722225304806,7.868238506895123,20.76562101159133,-5.02914399780108,0.24242424242424243,0.24242424242424243,7.45292031129427,False
23,9.568277162053529e-05,0.47756683292673596,0.6031932839097878,0.9912618243878086,0.9956303120868606,0.9899629744932069,0.023878341646336797,-0.011755357037729291,1.170278945241408,-1.1937896593168666,1.0,1.0,0.8970017452738178,5.770911606875333,6.127362172976136,0.15153080269955765,0.6968568161507716,0.8131731636633084,0.28854558034376665,-0.5132472442858147,11.45417706409998,-12.480671552671609,0.0,0.0,5.272872051084884,False
24,9.509795896116975e-05,0.4647169673620765,0.5872353617021411,0.9917180582188593,0.9958637212666946,0.9901629670133064,0.023235848368103825,0.014454519570763432,1.1650871003649717,-1.1361780612234447,0.9850746268656716,0.9850746268656716,0.9025896962009259,5.812930569504246,6.197342033585317,0.13203960367157708,0.8847507679899363,0.9029858188711248,0.29064652847521233,-0.41035293810295337,11.709780371565763,-12.53048624777167,0.0,0.0,5.312586155323067,False
25,9.447805898095418e-05,0.42832821296222173,0.5418160857758065,0.9929496356225563,0.9964811352543568,0.9930228600507313,0.021416410648111086,0.02926849562730362,1.0896774509662392,-1.0311404597116318,0.9850746268656716,0.9850746268656716,0.8481192250749958,6.3643779682390615,7.763475967510387,-0.36207619859390827,0.611713298693845,0.7947414620348385,0.31821889841195306,-4.9246924501476865,6.8384044924324865,-16.687789392727858,0.21212121212121213,0.21212121212121213,5.900228336097842,False
26,9.382355938448331e-05,0.46264520954729904,0.5742335221890358,0.992080735335463,0.996032688660046,0.9919828989462132,0.02313226047736495,-0.0017148007207842015,1.1237778843634594,-1.1272074858050276,0.9850746268656716,0.9850746268656716,0.855270638038863,6.580675518873966,7.890433541756976,-0.4069890277315136,0.4379215828840991,0.7877039032312411,0.3290337759436983,-4.757379123658845,7.58070572785234,-17.09546397517003,0.21212121212121213,0.21212121212121213,6.097809481921822,False
27,9.313497509750425e-05,0.42389880721248796,0.5411772812359145,0.9929662506691872,0.9964988097784454,0.9918229049301334,0.021194940360624397,0.04117979487376427,1.0988119844007975,-1.016452394653269,0.9850746268656716,0.9850746268656716,0.8566253962801463,6.705179214477539,8.964001424656727,-0.8159036930027999,0.4822046004146608,0.49128862886066765,0.33525896072387695,6.115117333152077,18.961517380780492,-6.731282714476339,0.30303030303030304,0.30303030303030304,6.233389232164682,False
28,9.241284786180008e-05,0.43007993520195803,0.5482160324695651,0.9927820937267717,0.9963847546651773,0.9918829026861635,0.021503996760097902,-0.0007053026512487611,1.0737972317356546,-1.075207837038152,0.9850746268656716,0.9850746268656716,0.8268175986275744,6.1189029072270245,7.01432175127563,-0.11188621207615301,0.5978724539167831,0.7949090229587338,0.3059451453613512,-3.421345414537372,8.580370965968003,-15.423061795042747,0.12121212121212122,0.12121212121212122,5.6327793579812,False
29,9.165774580897601e-05,0.392324235457093,0.5008304342543793,0.9939759412613458,0.9969839142053996,0.9932028533188211,0.01961621177285465,0.0023152832664660554,0.9839324451184964,-0.9793018785855644,0.9850746268656716,0.9850746268656716,0.797495837176024,5.258298953374227,6.305034959902977,0.10161193023456017,0.7909912551986465,0.8069734094791867,0.2629149476687113,-3.5482958085609204,6.666870449039791,-13.763462066161633,0.21212121212121213,0.21212121212121213,4.789785693766492,False
30,9.087026301348339e-05,0.39478713540888544,0.5068074176607207,0.9938312993016194,0.9969252317152482,0.9926428742625419,0.01973935677044427,0.030198874758250678,1.021776389250218,-0.9613786397337166,0.9850746268656716,0.9850746268656716,0.7751728598751239,9.044199376395255,10.889552265895372,-1.6798409888927819,0.7155291017966681,0.7836824410577568,0.4522099688197628,-9.034028616818516,2.8831381525583737,-20.951195386195405,0.15151515151515152,0.15151515151515152,8.590418548199038,False
31,9.005101902523334e-05,0.36684150215405137,0.48006066522065793,0.9944652243831429,0.9972329753227822,0.9934828428469605,0.01834207510770257,0.012659275709693111,0.9532509720868078,-0.9279324206674214,0.9850746268656716,0.9850746268656716,0.774626249697671,5.259486530766343,5.835588225948512,0.23041205387771502,0.8539469977072226,0.9061694764251333,0.26297432653831715,1.093657045653372,12.328749789842448,-10.141435698535702,0.06060606060606061,0.06060606060606061,4.7716940931298515,False
32,8.92006583821675e-05,0.37703647853723216,0.47153684610112306,0.9946600272287258,0.9973272722640675,0.9937228338710801,0.01885182392686161,0.00427489271804468,0.9284491297779682,-0.9198993443418788,0.9850746268656716,0.9850746268656716,0.7614848556803233,5.605569138671413,6.008514824812954,0.18412570171833686,0.5686643263312007,0.7992656069800085,0.2802784569335707,-0.6343202663190437,11.076558885482417,-12.345199418120504,0.030303030303030304,0.030303030303030304,5.1134826929882315,False
33,8.831985010316959e-05,0.35617221647234104,0.46510958182337975,0.9948046076922356,0.9974085203676344,0.9935628398550005,0.017808610823617052,0.025944796960745285,0.9361401617176689,-0.8842505677961784,0.9850746268656716,0.9850746268656716,0.7496965588028751,8.415806770324707,10.691211776835715,-1.583109655537418,0.6577897419082505,0.6040571306421239,0.4207903385162354,8.389506975809732,21.37858268647905,-4.599568734859583,0.12121212121212122,0.12121212121212122,7.928022464598068,False
34,8.74092871617167e-05,0.34440464670978377,0.44442712522887656,0.9952563909433729,0.9976287630161805,0.994282812927359,0.017220232335489187,-0.01331176241831993,0.8573745674671309,-0.8839980923037707,1.0,1.0,0.7442583242459083,7.592138868389708,9.978462477737976,-1.2501746890091163,0.3208623539791447,0.583782258850807,0.3796069434194854,7.477464733701764,20.42789454690358,-5.472965079500053,0.24242424242424243,0.24242424242424243,7.145394368349302,False
35,8.646968594068435e-05,0.3174102782313503,0.42459545064950704,0.9956702936059293,0.9978380702294481,0.9940028233992195,0.015870513911567515,0.012240005518073466,0.8441012256976882,-0.8196212146615413,0.9850746268656716,0.9850746268656716,0.7438818645121447,8.459654547951438,10.717827478177417,-1.595986933527033,0.4278223208415637,0.6348883406388369,0.42298272739757187,8.436937794540867,21.39221258213269,-4.518336993050955,0.12121212121212122,0.12121212121212122,7.976297505937441,False
36,8.550178566873411e-05,0.34982631766974037,0.45114122102898335,0.9951119820158606,0.9975684561037793,0.9933028495788708,0.01749131588348702,0.03285928048304657,0.9147474858817833,-0.8490289249156903,0.9850746268656716,0.9850746268656716,0.7297278989606829,8.359061154452236,10.64994729403211,-1.5632082666059137,0.19077805339907,0.3760067132207839,0.4179530577226118,8.32627348466353,21.34140362679743,-4.688856657470369,0.21212121212121213,0.21212121212121213,7.872913833459219,False
37,8.450634783872766e-05,0.3355290622853521,0.4393497553592946,0.9953641587916295,0.9977144212963361,0.9944028084394188,0.016776453114267606,0.0107762057389786,0.871642658842007,-0.8500902473640497,0.9850746268656716,0.9850746268656716,0.7376852341552279,5.78243891398112,7.474860527992365,-0.26268541888415786,0.7994132738907627,0.931973858704991,0.289121945699056,4.245390342943596,16.3038036381197,-7.813022952232508,0.21212121212121213,0.21212121212121213,5.302508306473192,False
38,8.348415560862421e-05,0.31191733034689034,0.42094556816854783,0.9957444112038779,0.9978971504686381,0.9945428032034885,0.015595866517344518,-0.01617392007984332,0.8082701497598533,-0.84061798991954,0.9850746268656716,0.9850746268656716,0.7019222569109789,8.619723146611994,10.82925042381747,-1.6502434611058083,0.5026753441580774,0.7694397625266665,0.4309861573305997,8.610512328870369,21.482765462793395,-4.261740805052657,0.12121212121212122,0.12121212121212122,8.132146648565929,False
39,8.243601318533337e-05,0.3264279063068219,0.4302520847232997,0.9955541609059843,0.9977943831954815,0.994282812927359,0.016321395315341096,0.02115953413408194,0.8634332021428229,-0.8211141338746591,0.9850746268656716,0.9850746268656716,0.7033973144061529,5.8171915141018955,7.563091797014186,-0.29267015336264035,0.8581019296704582,0.9127043524570452,0.2908595757050948,4.560667110211922,16.38592928701201,-7.264595066588166,0.2727272727272727,0.2727272727272727,5.333470956589839,False
40,8.136274519200734e-05,0.3352910951891942,0.41768069295261867,0.9958101683291766,0.9979188828091162,0.9944028084394188,0.01676455475945971,0.016163983006975545,0.834204886132848,-0.801876920118897,0.9850746268656716,0.9850746268656716,0.7003113593628157,11.114623605301887,12.938131976857653,-2.7829633333213395,0.7972214269675207,0.7250848209892146,0.5557311802650944,-11.114623605301887,1.8659047779336362,-24.09515198853741,0.09090909090909091,0.09090909090909091,10.650964921599988,False
41,8.026519601927112e-05,0.295894686855487,0.3979422648855041,0.9961968109969723,0.9981094802417152,0.9947827942276082,0.01479473434277435,0.0160162439986841,0.7953511031610554,-0.7633186151636873,0.9850746268656716,0.9850746268656716,0.6973910450935363,6.485773697043911,7.918175142888603,-0.41689995184022566,0.8217873373742205,0.8007736552950651,0.32428868485219553,-6.408179769010255,2.7079759005037243,-15.524335438524234,0.18181818181818182,0.18181818181818182,6.05486782056096,False
42,7.914422916090042e-05,0.34572849033483816,0.43608971864349116,0.9954327007313003,0.9977216661593342,0.9940028233992195,0.017286424516741908,-0.02330147552846083,0.8302133400442825,-0.8768162911012042,0.9850746268656716,0.9850746268656716,0.6906694821457364,7.457600766962225,9.790772765597897,-1.166321551786908,0.8369389818674386,0.8178648695323735,0.37288003834811123,7.3471025698112715,20.03109157883627,-5.336886439213728,0.2727272727272727,0.2727272727272727,6.982627422704992,False
43,7.800072653447035e-05,0.29114143795041897,0.402740247929007,0.9961045481554174,0.9980739486552043,0.9946028009595185,0.014557071897520948,0.030292476291087136,0.8174272883380753,-0.7568423357559011,0.9850746268656716,0.9850746268656716,0.6805197363469138,5.648300264820908,6.281401460210082,0.1083342598278686,0.6682219815784523,0.802616825457912,0.2824150132410454,-2.362029270692305,9.045915307781895,-13.769973849166506,0.09090909090909091,0.09090909090909091,5.157658076045489,False
